load (grams)     w (mm)
16.7487684729064 13.8888888888888
39.4088669950739 37.173202614379	
64.039408866995	 59.2320261437908
87.6847290640394 78.8398692810457
115.270935960591 101.307189542483
137.931034482758 118.055555555555
172.413793103448 140.931372549019
206.896551724137 162.990196078431
239.408866995073 181.372549019607
278.817733990147 199.346405228758
317.241379310344 214.869281045751
352.709359605911 228.349673202614
393.103448275862 242.238562091503
		 		












